"Latest: Time (s)","Latest: Position (m)","Latest: Velocity (m/s)","Latest: Acceleration (m/s²)"
0.05,-0.0732140905508,-0.324401777778,0.422609876543
0.1,-0.0896780905508,-0.310834222222,0.674736049383
0.15,-0.105867690551,-0.276686666667,1.09526251852
0.2,-0.119038890551,-0.209306222222,1.64504493827
0.25,-0.128094090551,-0.107930666667,2.12007876543
0.3,-0.130838090551,0.0158542222222,2.28556567901
0.35,-0.126447690551,0.137809777778,2.04707481481
0.4,-0.116020490551,0.235374222222,1.44940790123
0.45,-0.101202890551,0.291626222222,0.622396790123
0.5,-0.0850132905508,0.301077777778,-0.295657530864
0.55,-0.0690980905508,0.260984888889,-1.17763333333
0.6,-0.0570244905508,0.175311111111,-1.86049975309
0.65,-0.0504388905508,0.0615875555556,-2.21933703704
0.7,-0.0504388905508,-0.0623497777778,-2.19757135802
0.75,-0.0572988905508,-0.172414666667,-1.82323555556
0.8,-0.0688236905508,-0.254582222222,-1.18534024691
0.85,-0.0841900905508,-0.298943555556,-0.347658024691
0.9,-0.100654090551,-0.294827555556,0.600461728395
0.95,-0.116020490551,-0.235831555556,1.46812469136
1,-0.125898890551,-0.135675555556,2.05037777778
1.05,-0.130289290551,-0.0163115555556,2.27074469136
1.1,-0.127819690551,0.107778222222,2.0886582716
1.15,-0.118490090551,0.208239111111,1.53426864198
1.2,-0.105318890551,0.269216888889,0.766880246914
1.25,-0.0899524905508,0.28812,-0.08918
1.3,-0.0745860905508,0.259765333333,-0.92440617284
1.35,-0.0622380905508,0.189183555556,-1.60380024691
1.4,-0.0545548905508,0.0894848888889,-2.03648839506
1.45,-0.0526340905508,-0.026068,-2.16665901235
1.5,-0.0570244905508,-0.142535555556,-1.92545802469
1.55,-0.0680004905508,-0.233392444444,-1.33016246914
1.6,-0.0819948905508,-0.284308888889,-0.506200246914
1.65,-0.0981844905508,-0.289339555556,0.437854320988
1.7,-0.113276490551,-0.239032888889,1.3292308642
1.75,-0.123978090551,-0.144212444444,1.94536049383
1.8,-0.128368490551,-0.0294217777778,2.20333037037
1.85,-0.126996490551,0.0884177777778,2.12973358025
1.9,-0.119313290551,0.197568,1.70331259259
1.95,-0.105867690551,0.273180444444,0.940497530864
2,-0.0899524905508,0.299400888889,-0.00796098765432
2.05,-0.0737628905508,0.272418222222,-0.955911358025
2.1,-0.0605916905508,0.194976444444,-1.70009432099
2.15,-0.0531828905508,0.0887226666667,-2.11923185185
2.2,-0.0512620905508,-0.0298791111111,-2.20392320988
2.25,-0.0562012905508,-0.145889333333,-1.9335037037
2.3,-0.0669028905508,-0.236593777778,-1.34024074074
2.35,-0.0814460905508,-0.288424888889,-0.53380962963
2.4,-0.0976356905508,-0.293455555556,0.363071851852
2.45,-0.112727690551,-0.250161333333,1.21303432099
2.5,-0.124252490551,-0.166164444444,1.89962716049
2.55,-0.130838090551,-0.04802,2.28056888889
2.6,-0.129466090551,0.0800333333333,2.23449679012
2.65,-0.122057290551,0.191165333333,1.79952197531
2.7,-0.109160490551,0.271808444444,1.06380814815
2.75,-0.0929708905508,0.305346222222,0.140248888889
2.8,-0.0765068905508,0.286900444444,-0.806007654321
2.85,-0.0622380905508,0.218605333333,-1.60252987654
2.9,-0.0531828905508,0.114333333333,-2.10305580247
2.95,-0.0501644905508,-0.00655511111111,-2.24017111111
3,-0.0540060905508,-0.123937333333,-2.01717876543
3.05,-0.0633356905508,-0.221196888889,-1.47049604938
3.1,-0.0776044905508,-0.281564888889,-0.670755555556
3.15,-0.0935196905508,-0.292845777778,0.23882962963
3.2,-0.108886090551,-0.255039555556,1.09023185185
3.25,-0.120685290551,-0.175768444444,1.7482837037
3.3,-0.127545290551,-0.0690573333333,2.12710814815
3.35,-0.128094090551,0.0500017777778,2.17292617284
3.4,-0.122331690551,0.162963111111,1.84923580247
3.45,-0.110806890551,0.250008888889,1.16476024691
3.5,-0.0954404905508,0.290711555556,0.226888148148
3.55,-0.0792508905508,0.273485333333,-0.731818024691
3.6,-0.0660796905508,0.207324444444,-1.47354493827
3.65,-0.0575732905508,0.114028444444,-1.92376419753
3.7,-0.0540060905508,0.004116,-2.08306864198
3.75,-0.0570244905508,-0.107473333333,-1.91326246914
3.8,-0.0655308905508,-0.200312,-1.42806567901
3.85,-0.0784276905508,-0.259612888889,-0.713270617284
3.9,-0.0932452905508,-0.275772,0.107558024691
3.95,-0.107788490551,-0.247569777778,0.901708888889
4,-0.119587690551,-0.180341777778,1.57187160494
4.05,-0.126996490551,-0.0821675555556,2.03250790123
4.1,-0.128368490551,0.031556,2.23077037037
4.15,-0.124801290551,0.159152,1.99405802469
4.2,-0.111081290551,0.255496888889,1.23691728395
4.25,-0.0962636905508,0.288424888889,0.310139753086
4.3,-0.0808972905508,0.281717333333,-0.554982469136
4.35,-0.0663540905508,0.230343555556,-1.33312666667
4.4,-0.0562012905508,0.140248888889,-1.90157506173
4.45,-0.0515364905508,0.0286595555556,-2.18037901235
4.5,-0.0529084905508,-0.0916191111111,-2.10847604938
4.55,-0.0611404905508,-0.199244888889,-1.63962469136
4.6,-0.0745860905508,-0.267387555556,-0.884685925926
4.65,-0.0896780905508,-0.290864,-0.0254074074074
4.7,-0.105318890551,-0.270588888889,0.843102469136
4.75,-0.118764490551,-0.202293777778,1.59008024691
4.8,-0.126996490551,-0.0993937777778,2.05020839506
4.85,-0.129191690551,0.0172262222222,2.16132345679
4.9,-0.125075690551,0.129730222222,1.93926271605
4.95,-0.115471690551,0.222873777778,1.41536197531
5,-0.101477290551,0.282174666667,0.628494567901
5.05,-0.0852876905508,0.292845777778,-0.314204938272
5.1,-0.0699212905508,0.249399111111,-1.21565975309
5.15,-0.0583964905508,0.159761777778,-1.85660395062
5.2,-0.0531828905508,0.0484773333333,-2.1371017284
5.25,-0.0534572905508,-0.0664657777778,-2.0880654321
5.3,-0.0600428905508,-0.173481777778,-1.71034197531
5.35,-0.0721164905508,-0.249246666667,-1.05296765432
5.4,-0.0866596905508,-0.284461333333,-0.24052345679
5.45,-0.102300490551,-0.275009777778,0.629256790123
5.5,-0.115746090551,-0.222416444444,1.48421604938
5.55,-0.126722090551,-0.120736,2.15336246914
5.6,-0.129466090551,0.0152444444444,2.3245237037
5.65,-0.124252490551,0.134760888889,1.97254641975
5.7,-0.114648490551,0.223331111111,1.32313308642
5.75,-0.100379690551,0.272418222222,0.519242716049
5.8,-0.0855620905508,0.275924444444,-0.311579506173
5.85,-0.0712932905508,0.239947555556,-1.10056419753
5.9,-0.0597684905508,0.160981333333,-1.75158666667
5.95,-0.0540060905508,0.0532031111111,-2.11779209877
6,-0.0540060905508,-0.0655511111111,-2.11931654321
6.05,-0.0608660905508,-0.175311111111,-1.72219876543
6.1,-0.0729396905508,-0.251533333333,-1.00249160494
6.15,-0.0880316905508,-0.280650222222,-0.145245679012
6.2,-0.102849290551,-0.263576444444,0.679309382716
6.25,-0.115746090551,-0.209153777778,1.40511432099
6.3,-0.125350090551,-0.117077333333,1.95103481481
6.35,-0.128642890551,0.000609777777778,2.15073703704
6.4,-0.125075690551,0.115400444444,1.94891753086
6.45,-0.116020490551,0.206409777778,1.45677604938
6.5,-0.103398090551,0.268759555556,0.755616296296
6.55,-0.0874828905508,0.289187111111,-0.107896790123
6.6,-0.0723908905508,0.259155555556,-0.989787901235
6.65,-0.0597684905508,0.184457777778,-1.72177530864
6.7,-0.0523596905508,0.0734782222222,-2.13193555556
6.75,-0.0520852905508,-0.0468004444444,-2.12770098765
6.8,-0.0578476905508,-0.151377333333,-1.81044716049
6.85,-0.0680004905508,-0.235374222222,-1.26698271605
6.9,-0.0825436905508,-0.287510222222,-0.48663654321
6.95,-0.0984588905508,-0.294217777778,0.494258765432
7,-0.114648490551,-0.239642666667,1.4654145679
7.05,-0.125075690551,-0.128358222222,2.02801925926
7.1,-0.127270890551,-0.0135675555556,2.08611753086
7.15,-0.125624490551,0.087808,1.89403753086
7.2,-0.118490090551,0.182171111111,1.49776666667
7.25,-0.106416490551,0.249856444444,0.834040493827
7.3,-0.0915988905508,0.273332888889,0.00262543209876
7.35,-0.0770556905508,0.248484444444,-0.806007654321
7.4,-0.0652564905508,0.18522,-1.44991604938
7.45,-0.0575732905508,0.0957351111111,-1.8875162963
7.5,-0.0548292905508,-0.0132626666667,-2.06045604938
7.55,-0.0586708905508,-0.125461777778,-1.86812197531
7.6,-0.0682748905508,-0.216013777778,-1.30534790123
7.65,-0.0819948905508,-0.265863111111,-0.502558518519
7.7,-0.0968124905508,-0.267844888889,0.35113037037
7.75,-0.110532490551,-0.226532444444,1.1129291358
7.8,-0.120959690551,-0.148176,1.68459580247
7.85,-0.125898890551,-0.0509164444444,2.04893802469
7.9,-0.126996490551,0.0653986666667,2.14802691358
7.95,-0.119862090551,0.186134666667,1.75548246914
8,-0.106142090551,0.260070222222,0.943292345679
8.05,-0.0915988905508,0.281717333333,0.0474271604938
8.1,-0.0765068905508,0.261747111111,-0.79533654321
8.15,-0.0636100905508,0.197720444444,-1.5081837037
8.2,-0.0553780905508,0.100918222222,-1.97288518519
8.25,-0.0529084905508,-0.0120431111111,-2.12405925926
8.3,-0.0564756905508,-0.125919111111,-1.9181745679
8.35,-0.0663540905508,-0.218605333333,-1.36505530864
8.4,-0.0800740905508,-0.271046222222,-0.592500740741
8.45,-0.0951660905508,-0.280040444444,0.254074074074
8.5,-0.109709290551,-0.246045333333,1.09268790123
8.55,-0.121782890551,-0.165249777778,1.77648592593
8.6,-0.127545290551,-0.0536604444444,2.11694518519
8.65,-0.127270890551,0.0629595555556,2.06418246914
8.7,-0.120685290551,0.166164444444,1.6754491358
8.75,-0.109434890551,0.239947555556,1.04229654321
8.8,-0.0951660905508,0.275467111111,0.270080740741
8.85,-0.0803484905508,0.270284,-0.569549382716
8.9,-0.0660796905508,0.216776,-1.34947209877
8.95,-0.0570244905508,0.124242222222,-1.87777679012
9,-0.0531828905508,0.0163115555556,-2.09323160494
9.05,-0.0551036905508,-0.0972595555556,-1.98541950617
9.1,-0.0633356905508,-0.197720444444,-1.51148666667
9.15,-0.0765068905508,-0.260527555556,-0.755192839506
9.2,-0.0913244905508,-0.276381777778,0.0922288888889
9.25,-0.105867690551,-0.248941777778,0.89222345679
9.3,-0.117941290551,-0.180036888889,1.53587777778
9.35,-0.124526890551,-0.0885702222222,1.9877908642
9.4,-0.127819690551,0.0253057777778,2.20714148148
9.45,-0.123154890551,0.155645777778,1.90767283951
9.5,-0.109983690551,0.239795111111,1.1076782716
9.55,-0.0965380905508,0.266472888889,0.235611358025
9.6,-0.0822692905508,0.258240888889,-0.558539506173
9.65,-0.0690980905508,0.209001333333,-1.27358864198
9.7,-0.0597684905508,0.123327555556,-1.78893555556
9.75,-0.0559268905508,0.0169213333333,-1.99380395062
9.8,-0.0581220905508,-0.0897897777778,-1.86193950617
9.85,-0.0655308905508,-0.180799111111,-1.4373817284
9.9,-0.0773300905508,-0.243148888889,-0.777720740741
9.95,-0.0915988905508,-0.263576444444,0.00990888888889
10,-0.105318890551,-0.242234222222,0.805838271605
10.05,-0.117392490551,-0.180646666667,1.52088740741
10.1,-0.125075690551,-0.0806431111111,1.99168666667
10.15,-0.126173290551,0.0358244444444,2.06443654321
10.2,-0.120959690551,0.141925777778,1.75395802469
10.25,-0.110806890551,0.220739555556,1.1857637037
10.3,-0.0976356905508,0.266472888889,0.453691604938
10.35,-0.0825436905508,0.270893777778,-0.380772345679
10.4,-0.0685492905508,0.227599555556,-1.18263012346
10.45,-0.0581220905508,0.14406,-1.7799582716
10.5,-0.0531828905508,0.0364342222222,-2.06037135802
10.55,-0.0542804905508,-0.0763746666667,-1.98804493827
10.6,-0.0614148905508,-0.175158666667,-1.59583925926
10.65,-0.0729396905508,-0.245588,-0.956927654321
10.7,-0.0874828905508,-0.277601333333,-0.153037283951
10.75,-0.102574890551,-0.263424,0.702514814815
10.8,-0.115746090551,-0.202903555556,1.44746
10.85,-0.124252490551,-0.108083111111,1.93689135802
10.9,-0.127270890551,0.00457333333333,2.08840419753
10.95,-0.123703690551,0.115248,1.88099506173
11,-0.114922890551,0.205495111111,1.3546382716
11.05,-0.101751690551,0.260527555556,0.591907901235
11.1,-0.0869340905508,0.268759555556,-0.265930864198
11.15,-0.0729396905508,0.230191111111,-1.04305876543
11.2,-0.0625124905508,0.155798222222,-1.61718148148
11.25,-0.0564756905508,0.0586911111111,-1.94315851852
11.3,-0.0562012905508,-0.0498493333333,-1.9720382716
11.35,-0.0616892905508,-0.151072444444,-1.67756641975
11.4,-0.0718420905508,-0.234307111111,-1.01883703704
11.45,-0.0877572905508,-0.261289777778,-0.171669382716
11.5,-0.0998308905508,-0.243758666667,0.564637283951
11.55,-0.112727690551,-0.201531555556,1.22091061728
11.6,-0.121508490551,-0.122412888889,1.81485111111
11.65,-0.126722090551,-0.008232,2.1138962963
11.7,-0.122606090551,0.112046666667,1.91529506173
11.75,-0.113825290551,0.198330222222,1.35167407407
11.8,-0.101477290551,0.251533333333,0.632220987654
11.85,-0.0872084905508,0.265100888889,-0.177597777778
11.9,-0.0732140905508,0.235221777778,-0.993599012346
11.95,-0.0616892905508,0.159304444444,-1.64809382716
12,-0.0562012905508,0.056252,-1.97559530864
12.05,-0.0559268905508,-0.052136,-1.95967333333
12.1,-0.0616892905508,-0.152596888889,-1.62167012346
12.15,-0.0723908905508,-0.224550666667,-1.02883061728
12.2,-0.0855620905508,-0.260984888889,-0.290406666667
12.25,-0.100105290551,-0.256259111111,0.50764
12.3,-0.113002090551,-0.207781777778,1.2390345679
12.35,-0.122331690551,-0.123937333333,1.77004938272
12.4,-0.126173290551,-0.0195128888889,2.02031234568
12.45,-0.124526890551,0.0903995555556,1.95255925926
12.5,-0.116843690551,0.190708,1.52647703704
12.55,-0.103946890551,0.255801777778,0.800163950617
12.6,-0.0894036905508,0.275619555556,-0.0558962962963
12.65,-0.0745860905508,0.249704,-0.895865185185
12.7,-0.0625124905508,0.178664888889,-1.55705061728
12.75,-0.0556524905508,0.0807955555556,-1.91521037037
12.8,-0.0542804905508,-0.0242386666667,-1.98237061728
12.85,-0.0581220905508,-0.127138666667,-1.77860320988
12.9,-0.0674516905508,-0.215099111111,-1.26224
12.95,-0.0811716905508,-0.265863111111,-0.470121728395
13,-0.0962636905508,-0.265100888889,0.399743209877
13.05,-0.109434890551,-0.220129777778,1.15002395062
13.1,-0.119587690551,-0.141468444444,1.68696716049
13.15,-0.124526890551,-0.0400928888889,1.94078716049
13.2,-0.123703690551,0.0649413333333,1.88531432099
13.25,-0.117666890551,0.160219111111,1.53028814815
13.3,-0.106690890551,0.229581333333,0.89950691358
13.35,-0.0929708905508,0.257478666667,0.100359259259
13.4,-0.0789764905508,0.238575555556,-0.689472345679
13.45,-0.0677260905508,0.182780888889,-1.34515283951
13.5,-0.0594940905508,0.0969546666667,-1.80384123457
13.55,-0.0570244905508,-0.0106711111111,-1.94442888889
13.6,-0.0608660905508,-0.112656444444,-1.72473950617
13.65,-0.0690980905508,-0.194671555556,-1.21752296296
13.7,-0.0817204905508,-0.242539111111,-0.511197037037
13.75,-0.0951660905508,-0.247264888889,0.247044691358
13.8,-0.107788490551,-0.215861333333,0.962009135802
13.85,-0.118215690551,-0.147871111111,1.57127876543
13.9,-0.123978090551,-0.0484773333333,1.92545802469
13.95,-0.123429290551,0.0602155555556,1.91834395062
14,-0.117392490551,0.156865333333,1.57898567901
14.05,-0.106690890551,0.227599555556,0.990041975309
14.1,-0.0932452905508,0.262661777778,0.229767654321
14.15,-0.0787020905508,0.254429777778,-0.60926962963
14.2,-0.0658052905508,0.198787555556,-1.36700320988
14.25,-0.0572988905508,0.106558666667,-1.86456493827
14.3,-0.0545548905508,-0.00182933333333,-2.02242962963
14.35,-0.0575732905508,-0.108692888889,-1.84948987654
14.4,-0.0660796905508,-0.198635111111,-1.37538765432
14.45,-0.0787020905508,-0.256411555556,-0.656442716049
14.5,-0.0935196905508,-0.270131555556,0.193265679012
14.55,-0.107788490551,-0.234764444444,0.991651111111
14.6,-0.118490090551,-0.161743555556,1.58017135802
14.65,-0.124801290551,-0.0663133333333,1.90674123457
14.7,-0.125624490551,0.0405502222222,1.93917802469
14.75,-0.120410890551,0.139791555556,1.66791160494
14.8,-0.110806890551,0.217690666667,1.13461012346
14.85,-0.0973612905508,0.262509333333,0.385176296296
14.9,-0.0825436905508,0.259765333333,-0.44632345679
14.95,-0.0696468905508,0.213879555556,-1.19016765432
15,-0.0597684905508,0.132931555556,-1.73939111111
15.05,-0.0553780905508,0.0283546666667,-1.99753037037
15.1,-0.0567500905508,-0.0806431111111,-1.91216148148
15.15,-0.0638844905508,-0.177445333333,-1.47676320988
15.2,-0.0759580905508,-0.239642666667,-0.772808641975
15.25,-0.0896780905508,-0.258088444444,0.0279481481481
15.3,-0.103398090551,-0.234916888889,0.793812098765
15.35,-0.114648490551,-0.174091555556,1.43661950617
15.4,-0.122057290551,-0.0829297777778,1.85906
15.45,-0.123703690551,0.0253057777778,1.95196641975
15.5,-0.119313290551,0.128205777778,1.67096049383
15.55,-0.109709290551,0.204275555556,1.09997135802
15.6,-0.0973612905508,0.243301333333,0.383905925926
15.65,-0.0839156905508,0.244216,-0.37602962963
15.7,-0.0712932905508,0.204428,-1.09268790123
15.75,-0.0619636905508,0.128205777778,-1.63954
15.8,-0.0575732905508,0.0294217777778,-1.91207679012
15.85,-0.0586708905508,-0.076832,-1.84661037037
15.9,-0.0658052905508,-0.169670666667,-1.43907555556
15.95,-0.0770556905508,-0.229886222222,-0.797792592593
16,-0.0902268905508,-0.253362666667,-0.0428538271605
16.05,-0.103946890551,-0.236288888889,0.747824691358
16.1,-0.115746090551,-0.175006222222,1.43441753086
16.15,-0.122880490551,-0.0803382222222,1.83636271605
16.2,-0.123978090551,0.0225617777778,1.90614839506
16.25,-0.120410890551,0.120736,1.69467407407
16.3,-0.111355690551,0.202903555556,1.21117111111
16.35,-0.0987332905508,0.251380888889,0.505014567901
16.4,-0.0844644905508,0.257173777778,-0.293370864198
16.45,-0.0712932905508,0.220129777778,-1.04390567901
16.5,-0.0608660905508,0.144974666667,-1.6068491358
16.55,-0.0559268905508,0.0477151111111,-1.89031111111
16.6,-0.0559268905508,-0.0553373333333,-1.88506024691
16.65,-0.0616892905508,-0.151682222222,-1.59389135802
16.7,-0.0718420905508,-0.227142222222,-1.00935160494
16.75,-0.0861108905508,-0.262052,-0.213168148148
16.8,-0.100105290551,-0.248484444444,0.597074074074
16.85,-0.112453290551,-0.196348444444,1.27596
16.9,-0.120959690551,-0.112961333333,1.74997753086
16.95,-0.124526890551,-0.0108235555556,1.94840938272
17,-0.122331690551,0.0961924444444,1.80104641975
17.05,-0.114099690551,0.184152888889,1.30873555556
17.1,-0.102300490551,0.234764444444,0.61909382716
17.15,-0.0891292905508,0.247569777778,-0.126359506173
17.2,-0.0759580905508,0.220434666667,-0.834040493827
17.25,-0.0658052905508,0.160066666667,-1.42637185185
17.3,-0.0586708905508,0.069972,-1.81256444444
17.35,-0.0581220905508,-0.0352146666667,-1.87413506173
17.4,-0.0627868905508,-0.130187555556,-1.61743555556
17.45,-0.0718420905508,-0.205647555556,-1.1149617284
17.5,-0.0841900905508,-0.254429777778,-0.345879506173
17.55,-0.100105290551,-0.244216,0.511197037037
17.6,-0.110258090551,-0.191775111111,1.16382864198
17.65,-0.119313290551,-0.125919111111,1.70788592593
17.7,-0.125350090551,-0.0131102222222,2.01226666667
17.75,-0.120685290551,0.100613333333,1.79486395062
17.8,-0.113276490551,0.177292888889,1.29416864198
17.85,-0.102300490551,0.231868,0.680579753086
17.9,-0.0888548905508,0.251990666667,-0.0700397530864
17.95,-0.0751348905508,0.226989777778,-0.847421728395
18,-0.0644332905508,0.160524,-1.47303679012
18.05,-0.0581220905508,0.0687524444444,-1.83517703704
18.1,-0.0570244905508,-0.0355195555556,-1.88599185185
18.15,-0.0619636905508,-0.132931555556,-1.61718148148
18.2,-0.0712932905508,-0.207172,-1.09514395062
18.25,-0.0839156905508,-0.249551555556,-0.393391358025
18.3,-0.0979100905508,-0.250618666667,0.39915037037
18.35,-0.110806890551,-0.207629333333,1.13892938272
18.4,-0.120136490551,-0.128510666667,1.68086938272
18.45,-0.124526890551,-0.0277448888889,1.93223333333
18.5,-0.123154890551,0.0785088888889,1.84711851852
18.55,-0.116020490551,0.169670666667,1.44873037037
18.6,-0.105044490551,0.232325333333,0.822522469136
18.65,-0.0913244905508,0.257936,0.0540330864198
18.7,-0.0773300905508,0.237813333333,-0.717843950617
18.75,-0.0660796905508,0.180494222222,-1.35794123457
18.8,-0.0581220905508,0.0939057777778,-1.78834271605
18.85,-0.0559268905508,-0.0102137777778,-1.92190098765
18.9,-0.0592196905508,-0.112351555556,-1.71610098765
18.95,-0.0680004905508,-0.194214222222,-1.20973135802
19,-0.0800740905508,-0.241167111111,-0.509418518519
