"Latest: Time (s)","Latest: Position (m)","Latest: Velocity (m/s)","Latest: Acceleration (m/s²)"
0.05,-0.371076360114,-0.298486222222,0.969512790123
0.1,-0.386991560114,-0.261289777778,1.30229054321
0.15,-0.400437160114,-0.1915312,1.77343703704
0.2,-0.408394760114,-0.0815577777778,2.18474908642
0.25,-0.408943560114,0.0440564444444,2.28583669136
0.3,-0.403181160114,0.157322666667,2.13027560494
0.35,-0.392753960114,0.257936,1.87718395062
0.4,-0.377661960114,0.354890666667,1.41561604938
0.45,-0.355161160114,0.408703555556,0.779668641975
0.5,-0.335129960114,0.42532,0.25509037037
0.55,-0.312629160114,0.431265333333,-0.213591604938
0.6,-0.290677160114,0.406874222222,-0.713694074074
0.65,-0.270920360114,0.358092,-1.18076691358
0.7,-0.254181960114,0.288272444444,-1.62285580247
0.75,-0.241010760114,0.193756888889,-1.98567358025
0.8,-0.233876360114,0.0798808888889,-2.13058049383
0.85,-0.233327560114,-0.0298791111111,-2.04453407407
0.9,-0.237443560114,-0.127900888889,-1.85982222222
0.95,-0.246498760114,-0.215708888889,-1.65419160494
1,-0.259395560114,-0.293455555556,-1.42908197531
1.05,-0.276133960114,-0.361445777778,-1.13240814815
1.1,-0.296165160114,-0.412972,-0.696925185185
1.15,-0.318665960114,-0.435381333333,-0.152275061728
1.2,-0.340617960114,-0.431570222222,0.469359506173
1.25,-0.363393160114,-0.390410222222,1.11513111111
1.3,-0.381229160114,-0.313273333333,1.61438666667
1.35,-0.395223560114,-0.220434666667,1.92427234568
1.4,-0.403729960114,-0.115248,2.08950518519
1.45,-0.406748360114,-0.008232,2.15319308642
1.5,-0.404827560114,0.103357333333,2.11889308642
1.55,-0.396321160114,0.210983111111,1.92147753086
1.6,-0.382875560114,0.300772888889,1.58999555556
1.65,-0.365588360114,0.372574222222,1.16535308642
1.7,-0.345008360114,0.424252888889,0.59554962963
1.75,-0.321409960114,0.436753333333,-0.058437037037
1.8,-0.299732360114,0.412362222222,-0.603087160494
1.85,-0.279701160114,0.370592444444,-1.02256345679
1.9,-0.261865160114,0.308547555556,-1.3825017284
1.95,-0.248145160114,0.229581333333,-1.67265432099
2,-0.238541160114,0.139486666667,-1.90945135802
2.05,-0.233601960114,0.0359768888889,-2.06765481481
2.1,-0.234699560114,-0.0730208888889,-2.08654098765
2.15,-0.241010760114,-0.179274666667,-1.94586864198
2.2,-0.253084360114,-0.274095111111,-1.64843259259
2.25,-0.269273960114,-0.348183111111,-1.24792716049
2.3,-0.288756360114,-0.400928888889,-0.788561234568
2.35,-0.310433960114,-0.427301777778,-0.303957283951
2.4,-0.332111560114,-0.433704444444,0.23196962963
2.45,-0.355161160114,-0.407788888889,0.83175382716
2.5,-0.374369160114,-0.347420888889,1.37072962963
2.55,-0.390558760114,-0.266777777778,1.81434296296
2.6,-0.402083560114,-0.161896,2.1376945679
2.65,-0.407297160114,-0.0445137777778,2.26024296296
2.7,-0.406473960114,0.0725635555556,2.18427481481
2.75,-0.399613960114,0.179732,1.96263753086
2.8,-0.387814760114,0.271351111111,1.65952716049
2.85,-0.371899560114,0.346963555556,1.29874197531
2.9,-0.352691560114,0.407331555556,0.808971851852
2.95,-0.329641960114,0.433247111111,0.211559012346
3,-0.307964360114,0.425929777778,-0.351045679012
3.05,-0.286286760114,0.395593333333,-0.861141728395
3.1,-0.267353160114,0.338884,-1.32838395062
3.15,-0.251437960114,0.259308,-1.70568395062
3.2,-0.240736360114,0.162505777778,-1.9466308642
3.25,-0.234973960114,0.058996,-2.04521160494
3.3,-0.234699560114,-0.0471053333333,-2.01387580247
3.35,-0.239913160114,-0.147566222222,-1.86320987654
3.4,-0.250065960114,-0.235374222222,-1.65097333333
3.45,-0.263785960114,-0.312968444444,-1.40452148148
3.5,-0.281621960114,-0.380958666667,-1.04026395062
3.55,-0.303025160114,-0.422576,-0.539738024691
3.6,-0.324702760114,-0.439954666667,0.079017037037
3.65,-0.348575560114,-0.419832,0.791779506173
3.7,-0.368606760114,-0.355348,1.37809777778
3.75,-0.384796360114,-0.272265777778,1.73930641975
3.8,-0.396869960114,-0.168146222222,1.83305975309
3.85,-0.400162760114,-0.0855213333333,1.84135950617
3.9,-0.405650760114,0.00304888888889,2.03674246914
3.95,-0.401809160114,0.123784888889,2.10576592593
4,-0.392479560114,0.230191111111,1.8606691358
4.05,-0.377661960114,0.315102666667,1.46389012346
4.1,-0.360100360114,0.376080444444,1.02019209877
4.15,-0.339794760114,0.422728444444,0.46817382716
4.2,-0.315921960114,0.428216444444,-0.16980617284
4.25,-0.295341960114,0.397422666667,-0.660507901235
4.3,-0.276133960114,0.35672,-1.04085679012
4.35,-0.258846760114,0.295284888889,-1.42552493827
4.4,-0.245675560114,0.212964888889,-1.76810148148
4.45,-0.236894760114,0.114180888889,-2.01108098765
4.5,-0.233876360114,0.00579288888889,-2.10686691358
4.55,-0.236345960114,-0.102442666667,-2.05063185185
4.6,-0.244303560114,-0.205495111111,-1.83534641975
4.65,-0.257474760114,-0.292083555556,-1.48836592593
4.7,-0.274487560114,-0.357787111111,-1.07049876543
4.75,-0.294793160114,-0.391934666667,-0.738932098765
4.8,-0.312629160114,-0.434161777778,-0.334276790123
4.85,-0.339520360114,-0.444680444444,0.407958271605
4.9,-0.360374760114,-0.390410222222,1.10733950617
4.95,-0.378759560114,-0.321200444444,1.5725491358
5,-0.393302760114,-0.229428888889,1.91055234568
5.05,-0.402357960114,-0.124242222222,2.08772666667
5.1,-0.405925160114,-0.01372,2.10754444444
5.15,-0.403455560114,0.0916191111111,2.00591481481
5.2,-0.396321160114,0.187659111111,1.8627017284
5.25,-0.384521960114,0.278363555556,1.67307777778
5.3,-0.368332360114,0.360988444444,1.33202567901
5.35,-0.347752360114,0.423795555556,0.741896296296
5.4,-0.323879560114,0.441326666667,0.0249839506173
5.45,-0.301927560114,0.419374666667,-0.573699259259
5.5,-0.281347560114,0.376995111111,-1.02679802469
5.55,-0.263511560114,0.315102666667,-1.41248246914
5.6,-0.248968360114,0.233392444444,-1.72694148148
5.65,-0.239638760114,0.137809777778,-1.93333432099
5.7,-0.234973960114,0.0359768888889,-2.03267728395
5.75,-0.235797160114,-0.0704293333333,-2.01048814815
5.8,-0.242382760114,-0.169670666667,-1.8717637037
5.85,-0.253084360114,-0.260375111111,-1.64301234568
5.9,-0.268725160114,-0.340103555556,-1.27206419753
5.95,-0.288207560114,-0.393611555556,-0.773232098765
6,-0.309336360114,-0.418002666667,-0.244673333333
6.05,-0.331013960114,-0.416020888889,0.263220740741
6.1,-0.351593960114,-0.393459111111,0.806007654321
6.15,-0.371625160114,-0.339036444444,1.39258
6.2,-0.386991560114,-0.250923555556,1.87354222222
6.25,-0.397967560114,-0.136895111111,2.03674246914
6.3,-0.400162760114,-0.031556,1.87997876543
6.35,-0.399888360114,0.0513737777778,1.69560567901
6.4,-0.394674760114,0.127138666667,1.68586617284
6.45,-0.388089160114,0.216318666667,1.72982098765
6.5,-0.373545960114,0.313273333333,1.51944765432
6.55,-0.355161160114,0.378672,1.06744987654
6.6,-0.335129960114,0.425015111111,0.476473580247
6.65,-0.310982760114,0.431570222222,-0.217233333333
6.7,-0.290128360114,0.397117777778,-0.797707901235
6.75,-0.270920360114,0.346353777778,-1.25995333333
6.8,-0.254456360114,0.270284,-1.65969654321
6.85,-0.242931560114,0.173939111111,-1.90657185185
6.9,-0.236894760114,0.0714964444444,-1.98067679012
6.95,-0.236071560114,-0.0272875555556,-1.96382320988
7,-0.239638760114,-0.124699555556,-1.91893679012
7.05,-0.248419560114,-0.222873777778,-1.77657061728
7.1,-0.262413960114,-0.308395111111,-1.49005975309
7.15,-0.279701160114,-0.380196444444,-1.0263745679
7.2,-0.302201960114,-0.414344,-0.473255308642
7.25,-0.321958760114,-0.424557777778,0.0504760493827
7.3,-0.345282760114,-0.413581777778,0.641537037037
7.35,-0.365313960114,-0.359921333333,1.20202444444
7.4,-0.382052360114,-0.285223555556,1.59448419753
7.45,-0.394400360114,-0.194519111111,1.84246049383
7.5,-0.401809160114,-0.09604,1.9656017284
7.55,-0.404004360114,0.00426844444444,2.02090518519
7.6,-0.401534760114,0.107625777778,2.01590839506
7.65,-0.393302760114,0.210525777778,1.89242839506
7.7,-0.380131560114,0.304279111111,1.59380666667
7.75,-0.362021160114,0.376842666667,1.12554814815
7.8,-0.341441160114,0.422728444444,0.525425185185
7.85,-0.318117160114,0.430960444444,-0.109421234568
7.9,-0.296988360114,0.406264444444,-0.642383950617
7.95,-0.276957160114,0.363275111111,-1.09361950617
8,-0.259669960114,0.296199555556,-1.50140839506
8.05,-0.246498760114,0.209306222222,-1.81341135802
8.1,-0.238266760114,0.10976,-2.00227308642
8.15,-0.235248360114,0.00365866666667,-2.05715308642
8.2,-0.237992360114,-0.101070666667,-1.98203185185
8.25,-0.245675560114,-0.198177777778,-1.79926790123
8.3,-0.258023560114,-0.286748,-1.47981209877
8.35,-0.275310760114,-0.352299111111,-1.03399679012
8.4,-0.294518760114,-0.389952888889,-0.575308395062
8.45,-0.315098760114,-0.406264444444,-0.159304444444
8.5,-0.335404360114,-0.409160888889,0.319286419753
8.55,-0.357356360114,-0.380806222222,0.904164938272
8.6,-0.375192360114,-0.315102666667,1.41536197531
8.65,-0.389461160114,-0.231258222222,1.75895481481
8.7,-0.398790760114,-0.133998666667,1.96179061728
8.75,-0.403181160114,-0.0300315555556,2.03301604938
8.8,-0.401809160114,0.0746977777778,1.97966049383
8.85,-0.395223560114,0.169975555556,1.85778962963
8.9,-0.384796360114,0.262356888889,1.66393111111
8.95,-0.368606760114,0.343,1.31254666667
9,-0.349673160114,0.401996,0.780515555556
9.05,-0.326897960114,0.425929777778,0.142281481481
9.1,-0.305494760114,0.412667111111,-0.437684938272
9.15,-0.284914760114,0.377604888889,-0.921950123457
9.2,-0.266804360114,0.318608888889,-1.34235802469
9.25,-0.252261160114,0.240252444444,-1.67426345679
9.3,-0.242108360114,0.146041777778,-1.88345111111
9.35,-0.237443560114,0.0457333333333,-1.95154296296
9.4,-0.237717960114,-0.0522884444444,-1.9292691358
9.45,-0.242657160114,-0.149243111111,-1.83822592593
9.5,-0.252809960114,-0.240709777778,-1.63810024691
9.55,-0.267353160114,-0.317389333333,-1.3318562963
9.6,-0.285189160114,-0.377604888889,-0.92482962963
9.65,-0.306043560114,-0.413581777778,-0.421424197531
9.7,-0.327446760114,-0.424557777778,0.17751308642
9.75,-0.350221960114,-0.396660444444,0.786443950617
9.8,-0.368332360114,-0.338884,1.2563962963
9.85,-0.384521960114,-0.266320444444,1.61176123457
9.9,-0.395772360114,-0.174853777778,1.8786237037
9.95,-0.402357960114,-0.0742404444444,2.0390291358
10,-0.403455560114,0.0330804444444,2.09162246914
10.05,-0.399065160114,0.140248888889,2.00523728395
10.1,-0.389186760114,0.240252444444,1.75675283951
10.15,-0.374369160114,0.322877333333,1.35235160494
10.2,-0.355709960114,0.378672,0.866561975309
10.25,-0.335404360114,0.407484,0.393306666667
10.3,-0.314549960114,0.419832,-0.118652592593
10.35,-0.292049160114,0.399861777778,-0.697009876543
10.4,-0.273115560114,0.346811111111,-1.20608962963
10.45,-0.256651560114,0.273485333333,-1.59160469136
10.5,-0.245126760114,0.183238222222,-1.86244765432
10.55,-0.237992360114,0.083692,-2.02844271605
10.6,-0.236345960114,-0.0243911111111,-2.06570691358
10.65,-0.240461960114,-0.130797333333,-1.92054592593
10.7,-0.250065960114,-0.222873777778,-1.62395679012
10.75,-0.263511560114,-0.296047111111,-1.25241580247
10.8,-0.280524360114,-0.348183111111,-0.874607654321
10.85,-0.299183560114,-0.380806222222,-0.533555555556
10.9,-0.318940360114,-0.400928888889,-0.17793654321
10.95,-0.339520360114,-0.408093777778,0.359006666667
11,-0.361746760114,-0.372421777778,1.02942345679
11.05,-0.378485160114,-0.298028888889,1.57136345679
11.1,-0.391930760114,-0.206867111111,1.91571851852
11.15,-0.399888360114,-0.100613333333,2.08103604938
11.2,-0.402632360114,0.015092,1.9698362963
11.25,-0.396595560114,0.100918222222,1.75759975309
11.3,-0.392205160114,0.178969777778,1.71296740741
11.35,-0.380131560114,0.276381777778,1.57746123457
11.4,-0.363393160114,0.350927111111,1.17517728395
11.45,-0.343636360114,0.396050666667,0.678885925926
11.5,-0.323330760114,0.421508888889,0.101460246914
11.55,-0.300006760114,0.4116,-0.559809876543
11.6,-0.280249960114,0.360073777778,-1.10793234568
11.65,-0.263511560114,0.291626222222,-1.46397481481
11.7,-0.250614760114,0.209458666667,-1.69738419753
11.75,-0.242108360114,0.117687111111,-1.82204987654
11.8,-0.238815560114,0.0236288888889,-1.86481901235
11.85,-0.239913160114,-0.0689048888889,-1.87760740741
11.9,-0.245401160114,-0.165554666667,-1.82890987654
11.95,-0.256377160114,-0.26068,-1.59270567901
12,-0.272566760114,-0.332481333333,-1.19177679012
12.05,-0.290677160114,-0.380044,-0.754091851852
12.1,-0.311257160114,-0.407484,-0.298621728395
12.15,-0.332111560114,-0.414039111111,0.235780740741
12.2,-0.354063560114,-0.387818666667,0.834718024691
12.25,-0.372448360114,-0.326231111111,1.34803234568
12.3,-0.387265960114,-0.246502666667,1.72033555556
12.35,-0.397693160114,-0.150767555556,1.98728271605
12.4,-0.402906760114,-0.0426844444444,2.1181308642
12.45,-0.402083560114,0.0679902222222,2.08747259259
12.5,-0.395772360114,0.172262222222,1.90208320988
12.55,-0.384247560114,0.261289777778,1.61709679012
12.6,-0.369429960114,0.340256,1.1972817284
12.65,-0.348575560114,0.384464888889,0.696586419753
12.7,-0.330190760114,0.406721777778,0.231292098765
12.75,-0.307415560114,0.411142666667,-0.296758518519
12.8,-0.287384360114,0.378367111111,-0.83692
12.85,-0.268725160114,0.323182222222,-1.29086567901
12.9,-0.254181960114,0.245130666667,-1.64521432099
12.95,-0.243754760114,0.154426222222,-1.88573777778
13,-0.238266760114,0.0524408888889,-2.00938716049
13.05,-0.238266760114,-0.0536604444444,-1.96526296296
13.1,-0.244029160114,-0.151224888889,-1.76352814815
13.15,-0.254181960114,-0.231868,-1.50106962963
13.2,-0.267627560114,-0.300468,-1.23505407407
13.25,-0.284640360114,-0.357329777778,-0.917715555556
13.3,-0.304122760114,-0.395288444444,-0.51619382716
13.35,-0.324702760114,-0.415411111111,0.0281175308642
13.4,-0.347203560114,-0.399099555556,0.697094567901
13.45,-0.366411560114,-0.342390222222,1.29865728395
13.5,-0.382326760114,-0.260375111111,1.69984024691
13.55,-0.393028360114,-0.164487555556,1.89683234568
13.6,-0.399339560114,-0.058996,1.86126197531
13.65,-0.397418760114,0.0228666666667,1.78741111111
13.7,-0.397144360114,0.107016,1.88946419753
13.75,-0.388637960114,0.21952,1.82755481481
13.8,-0.374094760114,0.310834222222,1.38165481481
13.85,-0.355161160114,0.357177333333,0.888497037037
13.9,-0.338422760114,0.393306666667,0.465887160494
13.95,-0.315373160114,0.412057333333,-0.0922288888889
14,-0.295067560114,0.386446666667,-0.68083382716
14.05,-0.275859560114,0.337359555556,-1.14392617284
14.1,-0.260493160114,0.266015555556,-1.46787061728
14.15,-0.248968360114,0.185829777778,-1.67036765432
14.2,-0.241559560114,0.0968022222222,-1.80824518519
14.25,-0.239089960114,0.00259155555556,-1.87972469136
14.3,-0.241285160114,-0.0929911111111,-1.8848908642
14.35,-0.248145160114,-0.191317777778,-1.74870716049
14.4,-0.260767560114,-0.277906222222,-1.41078864198
14.45,-0.277231560114,-0.337664444444,-0.975220987654
14.5,-0.296165160114,-0.365866666667,-0.673211604938
14.55,-0.312903560114,-0.401081333333,-0.39957382716
14.6,-0.336227560114,-0.427454222222,0.256360740741
14.65,-0.359277160114,-0.383702666667,1.06177555556
14.7,-0.376015560114,-0.304736444444,1.57729185185
14.75,-0.389735560114,-0.216013777778,1.86126197531
14.8,-0.398241960114,-0.114333333333,2.00100271605
14.85,-0.401260360114,-0.0105186666667,2.00887901235
14.9,-0.399065160114,0.0896373333333,1.92943851852
14.95,-0.392205160114,0.185524888889,1.76302
15,-0.380131560114,0.270893777778,1.48785777778
15.05,-0.364216360114,0.336902222222,1.1371508642
15.1,-0.345831560114,0.385532,0.731140493827
15.15,-0.325251560114,0.417545333333,0.175649876543
15.2,-0.302201960114,0.408703555556,-0.478590864198
15.25,-0.282719560114,0.362360444444,-1.00291506173
15.3,-0.265706760114,0.302144888889,-1.39190246914
15.35,-0.251712360114,0.222264,-1.71804888889
15.4,-0.242657160114,0.125156888889,-1.91529506173
15.45,-0.239089960114,0.0236288888889,-1.95230518519
15.5,-0.240461960114,-0.0746977777778,-1.8685454321
15.55,-0.246773160114,-0.166926666667,-1.6907782716
15.6,-0.257749160114,-0.245740444444,-1.45660666667
15.65,-0.271743560114,-0.313425777778,-1.18610246914
15.7,-0.289579560114,-0.367696,-0.83006
15.75,-0.309336360114,-0.400776444444,-0.36527382716
15.8,-0.330465160114,-0.410532888889,0.230106419753
15.85,-0.352142760114,-0.380501333333,0.872998518518
15.9,-0.369978760114,-0.316474666667,1.38495777778
15.95,-0.384247560114,-0.235374222222,1.73829012346
16,-0.394125960114,-0.139029333333,1.95442246914
16.05,-0.399065160114,-0.0285071111111,1.92461111111
16.1,-0.396046760114,0.0653986666667,1.6748562963
16.15,-0.390833160114,0.130035111111,1.55696592593
16.2,-0.384247560114,0.211745333333,1.5778
16.25,-0.370253160114,0.300163111111,1.37691209877
16.3,-0.352691560114,0.360378666667,0.947696296296
16.35,-0.333209160114,0.395440888889,0.447847901235
16.4,-0.312629160114,0.409923111111,-0.153968888889
16.45,-0.290402760114,0.383855111111,-0.803720987654
16.5,-0.272566760114,0.320895555556,-1.2785854321
16.55,-0.258023560114,0.245740444444,-1.54078987654
16.6,-0.247870760114,0.164030222222,-1.7117817284
16.65,-0.241285160114,0.0746977777778,-1.85160716049
16.7,-0.239913160114,-0.0242386666667,-1.91309308642
16.75,-0.243754760114,-0.122565333333,-1.84237580247
16.8,-0.252535560114,-0.21266,-1.66570962963
16.85,-0.265432360114,-0.292388444444,-1.39596765432
16.9,-0.282445160114,-0.355195555556,-1.03340395062
16.95,-0.301378760114,-0.402300888889,-0.526018024691
17,-0.324153960114,-0.414953777778,0.116450617284
17.05,-0.344733960114,-0.386599111111,0.688117283951
17.1,-0.363393160114,-0.339036444444,1.11928098765
17.15,-0.379308360114,-0.272570666667,1.47820296296
17.2,-0.391381960114,-0.189031111111,1.76530666667
17.25,-0.398790760114,-0.0916191111111,1.94552987654
17.3,-0.400711560114,0.0108235555556,1.99642938272
17.35,-0.397693160114,0.112808888889,1.92393358025
17.4,-0.389186760114,0.208086666667,1.73168419753
17.45,-0.376289960114,0.289796888889,1.43687358025
17.5,-0.359551560114,0.354433333333,1.0538145679
17.55,-0.340343560114,0.401691111111,0.530083209877
17.6,-0.317842760114,0.413429333333,-0.103916296296
17.65,-0.297262760114,0.386599111111,-0.653732592593
17.7,-0.278603560114,0.340865777778,-1.0633
17.75,-0.262688360114,0.279278222222,-1.42112098765
17.8,-0.249791560114,0.198025333333,-1.73066790123
17.85,-0.242108360114,0.0998511111111,-1.90030469136
17.9,-0.239913160114,0.00121955555556,-1.91546444444
17.95,-0.242108360114,-0.0948204444444,-1.8358545679
18,-0.249517160114,-0.186134666667,-1.66003530864
18.05,-0.261316360114,-0.264033777778,-1.40164197531
18.1,-0.276408360114,-0.328670222222,-1.07168444444
18.15,-0.294793160114,-0.375623111111,-0.645009382716
18.2,-0.315098760114,-0.396508,-0.146939506173
18.25,-0.335678760114,-0.388428444444,0.336817530864
18.3,-0.354337960114,-0.363427555556,0.827858024691
18.35,-0.373271560114,-0.309004888889,1.34523753086
18.4,-0.386991560114,-0.219977333333,1.68756
18.45,-0.394949160114,-0.129882666667,1.8289945679
18.5,-0.399613960114,-0.0417697777778,1.99651407407
18.55,-0.400711560114,0.0721062222222,2.07764839506
18.6,-0.392205160114,0.181561333333,1.86405679012
18.65,-0.380954760114,0.262204444444,1.53613185185
18.7,-0.365862760114,0.333548444444,1.18017407407
18.75,-0.347203560114,0.388580888889,0.661778271605
18.8,-0.325251560114,0.405959555556,0.0332837037037
18.85,-0.304945960114,0.385836888889,-0.491294567901
18.9,-0.286286760114,0.350164888889,-0.880112592593
18.95,-0.269273960114,0.296961777778,-1.22167283951
19,-0.255828360114,0.226227555556,-1.51072444444
19.05,-0.246224360114,0.143450222222,-1.73710444444
19.1,-0.241010760114,0.0495444444444,-1.88175728395
19.15,-0.241010760114,-0.0500017777778,-1.90089753086
19.2,-0.246224360114,-0.145584444444,-1.7930854321
19.25,-0.255828360114,-0.233697333333,-1.56882271605
19.3,-0.270097160114,-0.307785333333,-1.22666962963
19.35,-0.287658760114,-0.358854222222,-0.818880740741
