"Latest: Time (s)","Latest: Position (m)","Latest: Velocity (m/s)","Latest: Acceleration (m/s²)"
0.05,-0.428137439812,-0.185067555556,-0.219435308642
0.1,-0.436918239812,-0.196577111111,-0.186320987654
0.15,-0.447345439812,-0.207629333333,-0.102722148148
0.2,-0.458047039812,-0.211288,0.0578865432099
0.25,-0.469023039812,-0.203360888889,0.257334691358
0.3,-0.478901439812,-0.183085777778,0.410668395062
0.35,-0.487407839812,-0.159761777778,0.5145
0.4,-0.495091039812,-0.130797333333,0.605712592593
0.45,-0.500304639812,-0.102290222222,0.748756296296
0.5,-0.506067039812,-0.058996,0.937109876543
0.55,-0.506890239812,-0.00259155555556,1.01570345679
0.6,-0.505792639812,0.0469528888889,0.996986666667
0.65,-0.502225439812,0.0964973333333,0.947865679012
0.7,-0.496463039812,0.147566222222,0.775772839506
0.75,-0.486584639812,0.180799111111,0.483164197531
0.8,-0.477255039812,0.191470222222,0.260002469136
0.85,-0.467651039812,0.201531555556,0.132711358025
0.9,-0.456949439812,0.206409777778,-0.00990888888889
0.95,-0.446522239812,0.201379111111,-0.168197037037
1,-0.436643839812,0.190250666667,-0.345456049383
1.05,-0.427039839812,0.167993777778,-0.540161481481
1.1,-0.419356639812,0.134760888889,-0.701159753086
1.15,-0.413319839812,0.0951253333333,-0.80389037037
1.2,-0.409752639812,0.0522884444444,-0.856399012346
1.25,-0.408106239812,0.00899422222222,-0.884177777778
1.3,-0.408655039812,-0.0375013333333,-0.873930123457
1.35,-0.411947839812,-0.0815577777778,-0.799401728395
1.4,-0.417161439812,-0.118601777778,-0.695739506173
1.45,-0.424021439812,-0.150310222222,-0.59554962963
1.5,-0.432253439812,-0.178817333333,-0.47334
1.55,-0.442131839812,-0.200616888889,-0.290576049383
1.6,-0.452833439812,-0.210373333333,-0.0587758024691
1.65,-0.463809439812,-0.205495111111,0.155239259259
1.7,-0.473687839812,-0.19208,0.311325432099
1.75,-0.483291839812,-0.172414666667,0.430994320988
1.8,-0.490975039812,-0.148633333333,0.544904197531
1.85,-0.498109439812,-0.123175111111,0.738169876543
1.9,-0.504695039812,-0.0725635555556,0.888412345679
1.95,-0.504969439812,-0.0263728888889,0.897559012346
2,-0.506890239812,0.0138724444444,0.943715802469
2.05,-0.504420639812,0.0679902222222,0.96810691358
2.1,-0.499755839812,0.115552888889,0.89010617284
2.15,-0.492895839812,0.161896,0.703954567901
2.2,-0.482743039812,0.190098222222,0.43133308642
2.25,-0.473139039812,0.201988888889,0.208764197531
2.3,-0.462437439812,0.208086666667,0.0420069135802
2.35,-0.452010239812,0.205952444444,-0.110014074074
2.4,-0.441583039812,0.197263111111,-0.264067654321
2.45,-0.431979039812,0.180341777778,-0.434043209877
2.5,-0.423198239812,0.154426222222,-0.608592098765
2.55,-0.416063839812,0.118144444444,-0.750111358025
2.6,-0.411124639812,0.0757648888889,-0.819219506173
2.65,-0.408655039812,0.0347573333333,-0.851148148148
2.7,-0.407557439812,-0.008232,-0.888581728395
2.75,-0.409203839812,-0.0557946666667,-0.885532839506
2.8,-0.413319839812,-0.0998511111111,-0.815323703704
2.85,-0.419356639812,-0.139486666667,-0.690319259259
2.9,-0.427588639812,-0.170890222222,-0.520343703704
2.95,-0.436918239812,-0.191622666667,-0.345117283951
3,-0.447071039812,-0.203970666667,-0.194112592593
3.05,-0.457498239812,-0.210830666667,-0.044462962963
3.1,-0.468474239812,-0.209306222222,0.128138024691
3.15,-0.478627039812,-0.200769333333,0.352485432099
3.2,-0.489328639812,-0.175463555556,0.599530123457
3.25,-0.496737439812,-0.137047555556,0.77390962963
3.3,-0.503048639812,-0.0954302222222,0.884685925926
3.35,-0.506615839812,-0.0468004444444,0.943122962963
3.4,-0.507713439812,0.00152444444444,0.944054567901
3.45,-0.506341439812,0.0484773333333,0.917207407407
3.5,-0.502774239812,0.0929911111111,0.874014814815
3.55,-0.497286239812,0.139486666667,0.753668395062
3.6,-0.488231039812,0.173481777778,0.53508
3.65,-0.479175839812,0.191470222222,0.333853333333
3.7,-0.469023039812,0.204732888889,0.169043950617
3.75,-0.458321439812,0.208544,0.00813037037037
3.8,-0.447894239812,0.205495111111,-0.152105679012
3.85,-0.437467039812,0.194061777778,-0.328687160494
3.9,-0.428137439812,0.173481777778,-0.517464197531
3.95,-0.419631039812,0.141773333333,-0.689302962963
4,-0.413594239812,0.101528,-0.798046666667
4.05,-0.409478239812,0.0596057777778,-0.85191037037
4.1,-0.407557439812,0.0157017777778,-0.880451358025
4.15,-0.407831839812,-0.0295742222222,-0.877910617284
4.2,-0.410575839812,-0.0734782222222,-0.840138271605
4.25,-0.415240639812,-0.115400444444,-0.757733580247
4.3,-0.422375039812,-0.151072444444,-0.630442469136
4.35,-0.430607039812,-0.179884444444,-0.46775037037
4.4,-0.440759839812,-0.19894,-0.28041308642
4.45,-0.450912639812,-0.207629333333,-0.100952098765
4.5,-0.461888639812,-0.207934222222,0.0586911111111
4.55,-0.472041439812,-0.199854666667,0.195128888889
4.6,-0.481645439812,-0.191927555556,0.399997283951
4.65,-0.492072639812,-0.165249777778,0.688964197531
4.7,-0.499207039812,-0.118906666667,0.896119259259
4.75,-0.504146239812,-0.0661608888889,0.927539753086
4.8,-0.504969439812,-0.026068,0.922458271605
4.85,-0.507439039812,0.0237813333333,0.930249876543
4.9,-0.502774239812,0.0750026666667,0.799486419753
4.95,-0.498658239812,0.103967111111,0.662963950617
5,-0.492621439812,0.135523111111,0.614943950617
5.05,-0.485212639812,0.166469333333,0.545497037037
5.1,-0.475883039812,0.194519111111,0.391782222222
5.15,-0.465181439812,0.209611111111,0.156170864198
5.2,-0.454205439812,0.209001333333,-0.0679224691358
5.25,-0.444052639812,0.200464444444,-0.249839506173
5.3,-0.433899839812,0.184305333333,-0.425828148148
5.35,-0.425119039812,0.157170222222,-0.580305185185
5.4,-0.417984639812,0.124394666667,-0.695654814815
5.45,-0.412496639812,0.0865884444444,-0.785427654321
5.5,-0.409203839812,0.045276,-0.855467407407
5.55,-0.407831839812,0.000609777777778,-0.904588395062
5.6,-0.408929439812,-0.0477151111111,-0.894425432099
5.65,-0.412771039812,-0.0925337777778,-0.804229135802
5.7,-0.418533439812,-0.129577777778,-0.674481975309
5.75,-0.425942239812,-0.160524,-0.527711851852
5.8,-0.434997439812,-0.182171111111,-0.379417283951
5.85,-0.444327039812,-0.198177777778,-0.23196962963
5.9,-0.455028639812,-0.207324444444,-0.0544565432099
5.95,-0.465730239812,-0.203360888889,0.121023950617
6,-0.475608639812,-0.192232444444,0.259494320988
6.05,-0.484663839812,-0.181713777778,0.475287901235
6.1,-0.494816639812,-0.149548,0.757648888889
6.15,-0.500579039812,-0.0992413333333,0.90467308642
6.2,-0.504695039812,-0.0483248888889,0.853350123457
6.25,-0.504420639812,-0.0135675555556,0.78204
6.3,-0.506067039812,0.0207324444444,0.862920246914
6.35,-0.503323039812,0.0724111111111,0.946764691358
6.4,-0.498658239812,0.121650666667,0.900861975309
6.45,-0.491249439812,0.170280444444,0.688286666667
6.5,-0.480547839812,0.196043555556,0.362224938272
6.55,-0.470669439812,0.201226666667,0.124835061728
6.6,-0.460516639812,0.203665777778,-0.0184627160494
6.65,-0.450089439812,0.199854666667,-0.152867901235
6.7,-0.440211039812,0.189031111111,-0.294810617284
6.75,-0.430881439812,0.170432888889,-0.442258271605
6.8,-0.422923839812,0.144974666667,-0.592924197531
6.85,-0.416063839812,0.111436888889,-0.74257382716
6.9,-0.411399039812,0.0693622222222,-0.856822469136
6.95,-0.408929439812,0.0225617777778,-0.899845679012
7,-0.409203839812,-0.0234764444444,-0.875369876543
7.05,-0.411399039812,-0.0666182222222,-0.807532098765
7.1,-0.416063839812,-0.105034222222,-0.715980740741
7.15,-0.422100639812,-0.138419555556,-0.613419506173
7.2,-0.430058239812,-0.167231555556,-0.488499753086
7.25,-0.439113439812,-0.188726222222,-0.33055037037
7.3,-0.449266239812,-0.201531555556,-0.14575382716
7.35,-0.459693439812,-0.203665777778,0.0418375308642
7.4,-0.470120639812,-0.195586222222,0.199448148148
7.45,-0.479450239812,-0.181256444444,0.325722962963
7.5,-0.487956639812,-0.167841333333,0.537705432099
7.55,-0.497286239812,-0.132474222222,0.818118518519
7.6,-0.502225439812,-0.0785088888889,0.951507407407
7.65,-0.504969439812,-0.026068,0.885617530864
7.7,-0.503597439812,0.00746977777778,0.84250962963
7.75,-0.504695039812,0.0478675555556,0.947272839506
7.8,-0.500304639812,0.111436888889,0.884855308642
7.85,-0.492072639812,0.148785777778,0.602748395062
7.9,-0.484389439812,0.166316888889,0.393476049383
7.95,-0.475608639812,0.181866222222,0.289475061728
8,-0.466279039812,0.196500888889,0.178190617284
8.05,-0.455577439812,0.203208444444,0.00330296296294
8.1,-0.445424639812,0.197568,-0.194790123457
8.15,-0.435546239812,0.183695555556,-0.392883209877
8.2,-0.426491039812,0.157170222222,-0.564467901235
8.25,-0.419631039812,0.124852,-0.68557654321
8.3,-0.413868639812,0.0879604444444,-0.782971604938
8.35,-0.410575839812,0.0455808888889,-0.849877777778
8.4,-0.409203839812,0.000762222222222,-0.867662962963
8.45,-0.410575839812,-0.0429893333333,-0.840900493827
8.5,-0.413594239812,-0.0843017777778,-0.783649135802
8.55,-0.419082239812,-0.123022666667,-0.686762222222
8.6,-0.426216639812,-0.154273777778,-0.559047654321
8.65,-0.434723039812,-0.179579555556,-0.415411111111
8.7,-0.444601439812,-0.195891111111,-0.257715802469
8.75,-0.454479839812,-0.205495111111,-0.0820659259259
8.8,-0.465181439812,-0.210068444444,0.192418765432
8.85,-0.476980639812,-0.186287111111,0.455808888889
8.9,-0.484115039812,-0.154273777778,0.531268888889
8.95,-0.491798239812,-0.130949777778,0.553881481481
9,-0.497560639812,-0.101223111111,0.6174
9.05,-0.501676639812,-0.0737831111111,0.772554567901
9.1,-0.505792639812,-0.0280497777778,0.990041975309
9.15,-0.505243839812,0.0318608888889,1.06380814815
9.2,-0.502499839812,0.0893324444444,0.91881654321
9.25,-0.495365439812,0.128663111111,0.66414962963
9.3,-0.488779839812,0.149852888889,0.498916790123
9.35,-0.480822239812,0.175158666667,0.39788
9.4,-0.470943839812,0.192842222222,0.250940493827
9.45,-0.461065439812,0.200921777778,0.0860464197531
9.5,-0.450638239812,0.201836444444,-0.096124691358
9.55,-0.440485439812,0.192537333333,-0.298791111111
9.6,-0.430881439812,0.171652444444,-0.490701728395
9.65,-0.422923839812,0.141163555556,-0.633745432099
9.7,-0.416612639812,0.105948888889,-0.723857037037
9.75,-0.412222239812,0.0676853333333,-0.78373382716
9.8,-0.409752639812,0.0269826666667,-0.824978518518
9.85,-0.409478239812,-0.015092,-0.852418518518
9.9,-0.411124639812,-0.0596057777778,-0.844711604938
9.95,-0.415515039812,-0.102137777778,-0.778398271605
10,-0.421551839812,-0.139639111111,-0.659237530864
10.05,-0.429783839812,-0.169518222222,-0.502897283951
10.1,-0.438839039812,-0.190555555556,-0.333514567901
10.15,-0.449266239812,-0.202446222222,-0.166249135802
10.2,-0.459419039812,-0.205647555556,-0.00846913580247
10.25,-0.469571839812,-0.208086666667,0.232731851852
10.3,-0.481371039812,-0.187354222222,0.537197283951
10.35,-0.489603039812,-0.143602666667,0.646279753086
10.4,-0.494816639812,-0.112808888889,0.585132592593
10.45,-0.500030239812,-0.0943631111111,0.67100962963
10.5,-0.505518239812,-0.0544226666667,0.906451604938
10.55,-0.506341439812,0.00320133333333,1.02493481481
10.6,-0.504695039812,0.0545751111111,0.998087654321
10.65,-0.501127839812,0.107778222222,0.84979308642
10.7,-0.493170239812,0.144669777778,0.601393333333
10.75,-0.485761439812,0.163725333333,0.424219012346
10.8,-0.476980639812,0.182780888889,0.323012839506
10.85,-0.467376639812,0.197568,0.20021037037
10.9,-0.456949439812,0.2058,0.0204106172839
10.95,-0.446247839812,0.201226666667,-0.195467654321
11,-0.436369439812,0.185372444444,-0.394322962963
11.05,-0.427314239812,0.159761777778,-0.549392839506
11.1,-0.420179839812,0.128205777778,-0.655087654321
11.15,-0.414417439812,0.0937533333333,-0.743844197531
11.2,-0.410575839812,0.0538128888889,-0.82489382716
11.25,-0.408929439812,0.0108235555556,-0.885278765432
11.3,-0.409203839812,-0.0371964444444,-0.887226666667
11.35,-0.412771039812,-0.0824724444444,-0.796945679012
11.4,-0.417984639812,-0.117534666667,-0.681087901235
11.45,-0.424570239812,-0.149548,-0.57065037037
11.5,-0.433076639812,-0.176530666667,-0.423626172839
11.55,-0.442680639812,-0.193452,-0.248315061728
11.6,-0.452833439812,-0.200464444444,-0.0874014814815
11.65,-0.462986239812,-0.201074222222,0.0608930864198
11.7,-0.473139039812,-0.194519111111,0.219604691358
11.75,-0.482468639812,-0.184305333333,0.467919753086
11.8,-0.492895839812,-0.147871111111,0.716319506173
11.85,-0.497286239812,-0.106863555556,0.842340246914
11.9,-0.503871839812,-0.0606728888889,0.891715308642
11.95,-0.503597439812,-0.0102137777778,0.806685185185
12,-0.503323039812,0.0146346666667,0.802027160494
12.05,-0.503597439812,0.0634168888889,0.893155061728
12.1,-0.497286239812,0.115552888889,0.784411358025
12.15,-0.490700639812,0.145432,0.599276049383
12.2,-0.482743039812,0.171804888889,0.451150864198
12.25,-0.473413439812,0.19208,0.278126419753
12.3,-0.462986239812,0.201074222222,0.085622962963
12.35,-0.452833439812,0.199092444444,-0.0839291358025
12.4,-0.442955039812,0.191775111111,-0.237135802469
12.45,-0.433351039812,0.176530666667,-0.405756296296
12.5,-0.424844639812,0.151072444444,-0.569888148148
12.55,-0.417984639812,0.118296888889,-0.706410617284
12.6,-0.412771039812,0.0794235555556,-0.812613580247
12.65,-0.409752639812,0.0344524444444,-0.861480493827
12.7,-0.409478239812,-0.00868933333333,-0.861649876543
12.75,-0.410575839812,-0.0522884444444,-0.835395555556
12.8,-0.414691839812,-0.0948204444444,-0.753922469136
12.85,-0.420454239812,-0.129272888889,-0.638064691358
12.9,-0.427863039812,-0.157932444444,-0.523731358025
12.95,-0.436369439812,-0.182018666667,-0.39186691358
13,-0.446247839812,-0.200007111111,-0.202581728395
13.05,-0.456949439812,-0.204732888889,0.0317592592593
13.1,-0.467376639812,-0.195128888889,0.236119506173
13.15,-0.476706239812,-0.177902666667,0.378485679012
13.2,-0.485212639812,-0.157017777778,0.498916790123
13.25,-0.492895839812,-0.127443555556,0.604018765432
13.3,-0.498109439812,-0.0936008888889,0.672618765432
13.35,-0.501676639812,-0.0653986666667,0.826587654321
13.4,-0.505792639812,-0.0161591111111,1.0417037037
13.45,-0.504420639812,0.0518311111111,1.01240049383
13.5,-0.499207039812,0.09604,0.772554567901
13.55,-0.493993439812,0.123632444444,0.599360740741
13.6,-0.487133439812,0.151834666667,0.496291358025
13.65,-0.478627039812,0.175006222222,0.375860246914
13.7,-0.469297439812,0.191012888889,0.225787160494
13.75,-0.459144639812,0.197872888889,0.0596227160494
13.8,-0.449266239812,0.197263111111,-0.118567901235
13.85,-0.439113439812,0.187964,-0.328602469136
13.9,-0.429783839812,0.164030222222,-0.525594567901
13.95,-0.422375039812,0.131712,-0.65085308642
14,-0.416612639812,0.0971071111111,-0.731309876543
14.05,-0.412496639812,0.0585386666667,-0.796945679012
14.1,-0.410575839812,0.0163115555556,-0.834379259259
14.15,-0.410850239812,-0.0266777777778,-0.831415061728
14.2,-0.413319839812,-0.0681426666667,-0.791525432099
14.25,-0.417710239812,-0.107473333333,-0.710814567901
14.3,-0.424295839812,-0.141316,-0.585132592593
14.35,-0.432253439812,-0.166164444444,-0.446238765432
14.4,-0.441034239812,-0.186134666667,-0.295742222222
14.45,-0.451187039812,-0.197720444444,-0.107134567901
14.5,-0.461339839812,-0.197263111111,0.0920595061728
14.55,-0.471218239812,-0.187964,0.279481481481
14.6,-0.480547839812,-0.168603555556,0.442342962963
14.65,-0.488505439812,-0.140858666667,0.553288641975
14.7,-0.494542239812,-0.111589333333,0.636794320988
14.75,-0.499481439812,-0.0824724444444,0.790339753086
14.8,-0.504146239812,-0.0309462222222,0.902047654321
14.85,-0.502499839812,0.0198177777778,0.813714567901
14.9,-0.500579039812,0.0461906666667,0.781785925926
14.95,-0.498932639812,0.0888751111111,0.875793333333
15,-0.492621439812,0.144822222222,0.773062716049
15.05,-0.483017439812,0.175920888889,0.488245679012
15.1,-0.474236639812,0.189488444444,0.249924197531
15.15,-0.464083839812,0.198025333333,0.0657204938272
15.2,-0.453931039812,0.195586222222,-0.0942614814815
15.25,-0.444327039812,0.187506666667,-0.231884938272
15.3,-0.434997439812,0.173481777778,-0.386531358025
15.35,-0.426491039812,0.148938222222,-0.541262469136
15.4,-0.419905439812,0.118296888889,-0.674058518518
15.45,-0.414417439812,0.0812528888889,-0.7889
15.5,-0.411399039812,0.0367391111111,-0.843187160494
15.55,-0.410850239812,-0.00640266666667,-0.828620246914
15.6,-0.412222239812,-0.0464955555556,-0.795082469136
15.65,-0.415515039812,-0.0855213333333,-0.754854074074
15.7,-0.420728639812,-0.123784888889,-0.673719753086
15.75,-0.428137439812,-0.156255555556,-0.525509876543
15.8,-0.436918239812,-0.176835555556,-0.356889382716
15.85,-0.445973439812,-0.191470222222,-0.190216790123
15.9,-0.456400639812,-0.197110666667,-0.00796098765432
15.95,-0.466279039812,-0.191012888889,0.154138271605
16,-0.475608639812,-0.179427111111,0.281852839506
16.05,-0.484115039812,-0.166926666667,0.476050123457
16.1,-0.493444639812,-0.132169333333,0.672957530864
16.15,-0.497286239812,-0.0957351111111,0.797369135802
16.2,-0.503323039812,-0.0513737777778,0.887141975309
16.25,-0.502499839812,-0.00457333333333,0.903995555556
16.3,-0.503871839812,0.0416173333333,0.860633580247
16.35,-0.498383839812,0.0881128888889,0.704039259259
16.4,-0.493444639812,0.106558666667,0.629764938272
16.45,-0.489054239812,0.145432,0.638234074074
16.5,-0.478901439812,0.181408888889,0.457079259259
16.55,-0.469571839812,0.193756888889,0.219011851852
16.6,-0.459419039812,0.199854666667,0.0225279012346
16.65,-0.449266239812,0.196043555556,-0.165656296296
16.7,-0.439387839812,0.182933333333,-0.336902222222
16.75,-0.430607039812,0.160828888889,-0.479099012346
16.8,-0.423198239812,0.134303555556,-0.601816790123
16.85,-0.416887039812,0.100918222222,-0.719199012346
16.9,-0.412771039812,0.0605204444444,-0.796098765432
16.95,-0.410850239812,0.019208,-0.828112098765
17,-0.410850239812,-0.0227142222222,-0.839714814815
17.05,-0.413045439812,-0.0657035555556,-0.819388888889
17.1,-0.417435839812,-0.107320888889,-0.737746419753
17.15,-0.424021439812,-0.142840444444,-0.586064197531
17.2,-0.432253439812,-0.166774222222,-0.41244691358
17.25,-0.441034239812,-0.182323555556,-0.266523703704
17.3,-0.450638239812,-0.192689777778,-0.133050123457
17.35,-0.460516639812,-0.196653333333,0.0158372839506
17.4,-0.470669439812,-0.192384888889,0.188861728395
17.45,-0.480273439812,-0.176530666667,0.350537530864
17.5,-0.488231039812,-0.158389777778,0.532115802469
17.55,-0.496737439812,-0.126376444444,0.754938765432
17.6,-0.501676639812,-0.0785088888889,0.889428641975
17.65,-0.504420639812,-0.0318608888889,0.916699259259
17.7,-0.504695039812,0.0135675555556,0.915090123457
17.75,-0.503048639812,0.0579288888889,0.915852345679
17.8,-0.499481439812,0.110064888889,0.81803382716
17.85,-0.491249439812,0.146956444444,0.586826419753
17.9,-0.483840639812,0.165097333333,0.405502222222
17.95,-0.475059839812,0.184762666667,0.270588888889
18,-0.464907039812,0.194061777778,0.112470123457
18.05,-0.455303039812,0.195586222222,-0.0392120987654
18.1,-0.445150239812,0.190555555556,-0.201311358025
18.15,-0.435820639812,0.175616,-0.36400345679
18.2,-0.427314239812,0.153511555556,-0.514330617284
18.25,-0.420179839812,0.123784888889,-0.653563209877
18.3,-0.414691839812,0.0876555555556,-0.774417777778
18.35,-0.411124639812,0.0449711111111,-0.8575
18.4,-0.410027039812,-0.00121955555556,-0.871389382716
18.45,-0.411399039812,-0.0448186666667,-0.823962222222
18.5,-0.414691839812,-0.0843017777778,-0.749857283951
18.55,-0.419905439812,-0.120736,-0.650344938272
18.6,-0.427039839812,-0.150615111111,-0.524239506173
18.65,-0.435271839812,-0.173329333333,-0.389919012346
18.7,-0.444601439812,-0.189488444444,-0.254920987654
18.75,-0.454479839812,-0.199549777778,-0.0989195061728
18.8,-0.464907039812,-0.199854666667,0.0750365432099
18.85,-0.474511039812,-0.195891111111,0.311833580247
18.9,-0.485761439812,-0.167688888889,0.528897530864
