"Latest: Time (s)","Latest: Position (m)","Latest: Velocity (m/s)","Latest: Acceleration (m/s²)"
0.05,-0.122069374126,0.0277448888889,1.1002254321
0.1,-0.122343774126,0.0767557777778,1.21527864198
0.15,-0.117678974126,0.147261333333,1.24630955556
0.2,-0.107800574126,0.218300444444,0.958917901235
0.25,-0.0943549741265,0.260832444444,0.290364320988
0.3,-0.0795373741265,0.252905333333,-0.526356790123
0.35,-0.0674637741265,0.203208444444,-1.24462419753
0.4,-0.0578597741265,0.120126222222,-1.74752148148
0.45,-0.0542925741265,0.0129577777778,-1.90055876543
0.5,-0.0573109741265,-0.0833871111111,-1.73414024691
0.55,-0.0633477741265,-0.163572888889,-1.41485382716
0.6,-0.0735005741265,-0.236136444444,-0.835480246914
0.65,-0.0891413741265,-0.26068,0.00609777777778
0.7,-0.102038174126,-0.230953333333,0.781785925926
0.75,-0.113014174126,-0.174244,1.38402617284
0.8,-0.120697374126,-0.0870457777778,1.80917679012
0.85,-0.122618174126,0.0184457777778,1.94112592593
0.9,-0.118776574126,0.122565333333,1.71720197531
0.95,-0.109172574126,0.201074222222,1.21007012346
1,-0.0976477741265,0.250618666667,0.512128641975
1.05,-0.0825557741265,0.260070222222,-0.340035802469
1.1,-0.0691101741265,0.213727111111,-1.12758074074
1.15,-0.0600549741265,0.135828,-1.66410049383
1.2,-0.0548413741265,0.0382635555556,-1.94375135802
1.25,-0.0553901741265,-0.0733257777778,-1.86464962963
1.3,-0.0630733741265,-0.165402222222,-1.41061925926
1.35,-0.0737749741265,-0.218910222222,-0.808040246914
1.4,-0.0858485741265,-0.245435555556,-0.169382716049
1.45,-0.0992941741265,-0.241929333333,0.57751037037
1.5,-0.112190974126,-0.190098222222,1.33397358025
1.55,-0.120148574126,-0.0969546666667,1.83170469136
1.6,-0.122343774126,0.0102137777778,1.94061777778
1.65,-0.118776574126,0.110522222222,1.71195111111
1.7,-0.110544574126,0.191470222222,1.22726246914
1.75,-0.0981965741265,0.239185333333,0.579627654321
1.8,-0.0852997741265,0.251685777778,-0.144737530864
1.85,-0.0718541741265,0.229733777778,-0.94109037037
1.9,-0.0597805741265,0.153968888889,-1.62310987654
1.95,-0.0551157741265,0.0475626666667,-1.89750987654
2,-0.0559389741265,-0.0481724444444,-1.85889061728
2.05,-0.0597805741265,-0.143297777778,-1.62039975309
2.1,-0.0704821741265,-0.225465333333,-1.04212716049
2.15,-0.0844765741265,-0.260222666667,-0.202581728395
2.2,-0.0987453741265,-0.243758666667,0.621126419753
2.25,-0.110270174126,-0.189183555556,1.26215530864
2.3,-0.118502174126,-0.110522222222,1.70949506173
2.35,-0.122343774126,-0.00945155555556,1.9171582716
2.4,-0.119599774126,0.0949728888889,1.79156098765
2.45,-0.112190974126,0.183085777778,1.34269679012
2.5,-0.100117374126,0.240862222222,0.632559753086
2.55,-0.0858485741265,0.248636888889,-0.143043703704
2.6,-0.0737749741265,0.219062666667,-0.791440740741
2.65,-0.0633477741265,0.166926666667,-1.35870345679
2.7,-0.0556645741265,0.0821675555556,-1.83407604938
2.75,-0.0537437741265,-0.0300315555556,-1.98829901235
2.8,-0.0589573741265,-0.136742666667,-1.69975555556
2.85,-0.0688357741265,-0.21266,-1.09793876543
2.9,-0.0817325741265,-0.250923555556,-0.35799037037
2.95,-0.0954525741265,-0.249704,0.41930691358
3,-0.108349374126,-0.207476888889,1.14731382716
3.05,-0.117678974126,-0.128815555556,1.70847876543
3.1,-0.122343774126,-0.0245435555556,1.9698362963
3.15,-0.120422974126,0.0853688888889,1.83534641975
3.2,-0.112739774126,0.172719555556,1.37343975309
3.25,-0.101763774126,0.227752,0.748840987654
3.3,-0.0888669741265,0.251076,0.0243064197531
3.35,-0.0751469741265,0.235069333333,-0.773147407407
3.4,-0.0630733741265,0.169060888889,-1.44441111111
3.45,-0.0570365741265,0.0742404444444,-1.76894839506
3.5,-0.0559389741265,-0.0202751111111,-1.79240790123
3.55,-0.0592317741265,-0.110674666667,-1.62294049383
3.6,-0.0671893741265,-0.191775111111,-1.21633728395
3.65,-0.0795373741265,-0.244520888889,-0.540076790123
3.7,-0.0935317741265,-0.252448,0.284139506173
3.75,-0.106702974126,-0.214032,1.0616908642
3.8,-0.116581374126,-0.136285333333,1.61481012346
3.85,-0.120971774126,-0.0400928888889,1.87193308642
3.9,-0.120697374126,0.0605204444444,1.8627017284
3.95,-0.114934974126,0.15778,1.55484864198
4,-0.103958974126,0.230343555556,0.922797037037
4.05,-0.0899645741265,0.258088444444,0.104085679012
4.1,-0.0762445741265,0.239490222222,-0.701075061728
4.15,-0.0644453741265,0.181256444444,-1.35328320988
4.2,-0.0570365741265,0.0951253333333,-1.77801037037
4.25,-0.0542925741265,-0.00701244444444,-1.92774469136
4.3,-0.0575853741265,-0.110979555556,-1.74599703704
4.35,-0.0660917741265,-0.196500888889,-1.22302790123
4.4,-0.0789885741265,-0.242234222222,-0.488245679012
4.45,-0.0921597741265,-0.244063555556,0.251702716049
4.5,-0.104507774126,-0.213879555556,0.923135802469
4.55,-0.114934974126,-0.149090666667,1.49683506173
4.6,-0.120697374126,-0.0553373333333,1.84237580247
4.65,-0.120971774126,0.0496968888889,1.85076024691
4.7,-0.115209374126,0.143907555556,1.52495259259
4.75,-0.105330974126,0.209763555556,0.986654320988
4.8,-0.0932573741265,0.247722222222,0.305989876543
4.85,-0.0789885741265,0.246045333333,-0.487652839506
4.9,-0.0666405741265,0.197263111111,-1.2295491358
4.95,-0.0578597741265,0.113876,-1.75184074074
5,-0.0542925741265,0.00792711111111,-1.93994024691
5.05,-0.0573109741265,-0.0945155555556,-1.77707876543
5.1,-0.0644453741265,-0.179884444444,-1.34312024691
5.15,-0.0762445741265,-0.238880444444,-0.668045432099
5.2,-0.0902389741265,-0.252905333333,0.142959012346
5.25,-0.103410174126,-0.221959111111,0.901624197531
5.3,-0.113837374126,-0.155036,1.47972740741
5.35,-0.119874174126,-0.0640266666667,1.80663604938
5.4,-0.120697374126,0.0376537777778,1.83602395062
5.45,-0.115758174126,0.131559555556,1.56738296296
5.5,-0.106702974126,0.204275555556,1.04754740741
5.55,-0.0940805741265,0.244673333333,0.332582962963
5.6,-0.0803605741265,0.240557333333,-0.447339753086
5.65,-0.0682869741265,0.194824,-1.11894222222
5.7,-0.0597805741265,0.119973777778,-1.58864049383
5.75,-0.0556645741265,0.0278973333333,-1.83831061728
5.8,-0.0564877741265,-0.0742404444444,-1.81417358025
5.85,-0.0633477741265,-0.168146222222,-1.44618962963
5.9,-0.0745981741265,-0.231563111111,-0.782971604938
5.95,-0.0883181741265,-0.251685777778,0.0160066666667
6,-0.101489374126,-0.228514222222,0.78762962963
6.05,-0.112739774126,-0.166774222222,1.40757037037
6.1,-0.119325374126,-0.0769844444444,1.77081160494
6.15,-0.120697374126,0.0216471111111,1.84813481481
6.2,-0.117130174126,0.118296888889,1.64817851852
6.25,-0.108349374126,0.199549777778,1.14248641975
6.3,-0.0954525741265,0.241624444444,0.422355802469
6.35,-0.0825557741265,0.242996444444,-0.345032592593
6.4,-0.0696589741265,0.205495111111,-1.06253777778
6.45,-0.0603293741265,0.129272888889,-1.59168938272
6.5,-0.0559389741265,0.0332328888889,-1.81722246914
6.55,-0.0570365741265,-0.0643315555556,-1.74701333333
6.6,-0.0627989741265,-0.151072444444,-1.42112098765
6.65,-0.0729517741265,-0.215861333333,-0.864275308642
6.7,-0.0858485741265,-0.244978222222,-0.137454074074
6.75,-0.0992941741265,-0.230343555556,0.615113333333
6.8,-0.110270174126,-0.179274666667,1.26757555556
6.85,-0.118502174126,-0.0968022222222,1.73346271605
6.9,-0.120971774126,0.00762222222222,1.87709925926
6.95,-0.117404574126,0.106101333333,1.66681061728
7,-0.109446974126,0.183848,1.20448049383
7.05,-0.0979221741265,0.232935111111,0.566839259259
7.1,-0.0847509741265,0.245740444444,-0.189708641975
7.15,-0.0715797741265,0.215404,-0.961162222222
7.2,-0.0614269741265,0.142992888889,-1.56662074074
7.25,-0.0562133741265,0.0449711111111,-1.84948987654
7.3,-0.0567621741265,-0.057624,-1.76691580247
7.35,-0.0627989741265,-0.142992888889,-1.40231950617
7.4,-0.0721285741265,-0.202598666667,-0.885617530864
7.45,-0.0839277741265,-0.236593777778,-0.241031604938
7.5,-0.0973733741265,-0.231715555556,0.498747407407
7.55,-0.108898174126,-0.184457777778,1.17746395062
7.6,-0.117130174126,-0.105034222222,1.64656938272
7.65,-0.120148574126,-0.00716488888889,1.8152745679
7.7,-0.117678974126,0.0884177777778,1.68476518519
7.75,-0.110818974126,0.171195111111,1.2949308642
7.8,-0.0995685741265,0.227752,0.670078024691
7.85,-0.0863973741265,0.244520888889,-0.0942614814815
7.9,-0.0732261741265,0.216776,-0.829975308642
7.95,-0.0633477741265,0.153968888889,-1.39800024691
8,-0.0570365741265,0.0692097777778,-1.75963234568
8.05,-0.0556645741265,-0.0321657777778,-1.85304691358
8.1,-0.0603293741265,-0.130492444444,-1.60244518519
8.15,-0.0696589741265,-0.2058,-1.03865481481
8.2,-0.0825557741265,-0.242081777778,-0.288712839506
8.25,-0.0957269741265,-0.233849777778,0.460975061728
8.3,-0.107251774126,-0.191012888889,1.09963259259
8.35,-0.116032574126,-0.117839555556,1.57644493827
8.4,-0.119874174126,-0.0242386666667,1.81417358025
8.45,-0.118776574126,0.0759173333333,1.74472666667
8.5,-0.111916574126,0.165249777778,1.33100938272
8.55,-0.100666174126,0.219062666667,0.683374567901
8.6,-0.0883181741265,0.233392444444,0.00228666666667
8.65,-0.0762445741265,0.216776,-0.640012592593
8.7,-0.0655429741265,0.169975555556,-1.25707382716
8.75,-0.0575853741265,0.086436,-1.73066790123
8.8,-0.0559389741265,-0.0181408888889,-1.86261703704
8.85,-0.0597805741265,-0.116010222222,-1.62023037037
8.9,-0.0685613741265,-0.190403111111,-1.11174345679
8.95,-0.0800861741265,-0.232782666667,-0.446408148148
9,-0.0932573741265,-0.238423111111,0.297690123457
9.05,-0.105605374126,-0.202903555556,1.01968395062
9.1,-0.115209374126,-0.128815555556,1.55654246914
9.15,-0.119325374126,-0.0338426666667,1.78647950617
9.2,-0.118502174126,0.06174,1.71991209877
9.25,-0.112739774126,0.146956444444,1.40934888889
9.3,-0.103135774126,0.21266,0.853942962963
9.35,-0.0899645741265,0.241319555556,0.10332345679
9.4,-0.0770677741265,0.224245777778,-0.669654567901
9.45,-0.0658173741265,0.166469333333,-1.26994691358
9.5,-0.0595061741265,0.0849115555556,-1.59634740741
9.55,-0.0573109741265,-0.00152444444444,-1.70111061728
9.6,-0.0595061741265,-0.0907044444444,-1.62353333333
9.65,-0.0663661741265,-0.175311111111,-1.26698271605
9.7,-0.0781653741265,-0.231868,-0.597920987654
9.75,-0.0916109741265,-0.241472,0.215454814815
9.8,-0.104233374126,-0.205342666667,0.937194567901
9.85,-0.113288574126,-0.138419555556,1.44923851852
9.9,-0.118776574126,-0.0522884444444,1.74218592593
9.95,-0.119050974126,0.0454284444444,1.77809506173
10,-0.114111774126,0.138572,1.49962987654
10.05,-0.104233374126,0.208086666667,0.927878518518
10.1,-0.0916109741265,0.237965777778,0.195552345679
10.15,-0.0787141741265,0.226227555556,-0.525425185185
10.2,-0.0677381741265,0.180951555556,-1.14418024691
10.25,-0.0595061741265,0.107016,-1.61768962963
10.3,-0.0559389741265,0.00914666666667,-1.8332291358
10.35,-0.0584085741265,-0.0920764444444,-1.68696716049
10.4,-0.0660917741265,-0.172719555556,-1.22937975309
10.45,-0.0770677741265,-0.220739555556,-0.607152345679
10.5,-0.0894157741265,-0.235526666667,0.082489382716
10.55,-0.102038174126,-0.213879555556,0.788391851852
10.6,-0.112465374126,-0.153054222222,1.39122493827
10.65,-0.118502174126,-0.0643315555556,1.74464197531
10.7,-0.119325374126,0.0349097777778,1.77682469136
10.75,-0.114660574126,0.126224,1.49954518519
10.8,-0.105605374126,0.192842222222,1.00672617284
10.85,-0.0943549741265,0.231715555556,0.374420493827
10.9,-0.0811837741265,0.236593777778,-0.382296790123
10.95,-0.0685613741265,0.193299555556,-1.11428419753
11,-0.0603293741265,0.113876,-1.60058197531
11.05,-0.0567621741265,0.0207324444444,-1.78876617284
11.1,-0.0581341741265,-0.07546,-1.69831580247
11.15,-0.0647197741265,-0.160066666667,-1.33067061728
11.2,-0.0751469741265,-0.219062666667,-0.716065432099
11.25,-0.0883181741265,-0.237660888889,0.0369254320988
11.3,-0.100666174126,-0.213727111111,0.757056049383
11.35,-0.111093374126,-0.155036,1.31728938272
11.4,-0.117130174126,-0.0721062222222,1.64165728395
11.45,-0.118502174126,0.0181408888889,1.72728024691
11.5,-0.115483774126,0.110064888889,1.56204740741
11.55,-0.106977374126,0.187354222222,1.09700716049
11.6,-0.0951781741265,0.228666666667,0.422440493827
11.65,-0.0825557741265,0.231410666667,-0.30912345679
11.7,-0.0704821741265,0.195281333333,-0.98267382716
11.75,-0.0617013741265,0.126376444444,-1.48862
11.8,-0.0570365741265,0.037044,-1.75683753086
11.85,-0.0575853741265,-0.0612826666667,-1.72872
11.9,-0.0636221741265,-0.148633333333,-1.39114024691
11.95,-0.0735005741265,-0.210220888889,-0.812444197531
12,-0.0861229741265,-0.235526666667,-0.0944308641975
12.05,-0.0987453741265,-0.21952,0.62553037037
12.1,-0.109446974126,-0.168603555556,1.23666320988
12.15,-0.116855774126,-0.0876555555556,1.64208074074
12.2,-0.118776574126,0.00731733333333,1.76242716049
12.25,-0.116032574126,0.100460888889,1.58796296296
12.3,-0.108074974126,0.176988,1.14409555556
12.35,-0.0970989741265,0.223026222222,0.502727901235
12.4,-0.0842021741265,0.230648444444,-0.22036691358
12.45,-0.0724029741265,0.198635111111,-0.891291851852
12.5,-0.0630733741265,0.134760888889,-1.40231950617
12.55,-0.0581341741265,0.0500017777778,-1.69577506173
12.6,-0.0575853741265,-0.045276,-1.72135185185
12.65,-0.0627989741265,-0.135675555556,-1.4311145679
12.7,-0.0724029741265,-0.198482666667,-0.893747901235
12.75,-0.0839277741265,-0.228971555556,-0.236288888889
12.8,-0.0965501741265,-0.225465333333,0.489770123457
12.85,-0.108349374126,-0.178512444444,1.16128790123
12.9,-0.115758174126,-0.0992413333333,1.60142888889
12.95,-0.118776574126,-0.00594533333333,1.74642049383
13,-0.116306974126,0.0867408888889,1.60642567901
13.05,-0.109446974126,0.163877777778,1.22539925926
13.1,-0.0990197741265,0.217080888889,0.64441654321
13.15,-0.0863973741265,0.235679111111,-0.0964634567901
13.2,-0.0735005741265,0.208544,-0.849200246914
13.25,-0.0638965741265,0.142383111111,-1.41197432099
13.3,-0.0584085741265,0.0544226666667,-1.67858271605
13.35,-0.0584085741265,-0.037044,-1.6591037037
13.4,-0.0625245741265,-0.119211555556,-1.42188320988
13.45,-0.0707565741265,-0.187659111111,-0.971155802469
13.5,-0.0825557741265,-0.225008,-0.326315802469
13.55,-0.0949037741265,-0.223178666667,0.386616049383
13.6,-0.106428574126,-0.183085777778,1.029
13.65,-0.114386174126,-0.113113777778,1.49666567901
13.7,-0.118502174126,-0.0242386666667,1.72948222222
13.75,-0.117130174126,0.0716488888889,1.66926666667
13.8,-0.110818974126,0.154883555556,1.31136098765
13.85,-0.100666174126,0.213117333333,0.709544197531
13.9,-0.0877693741265,0.230800888889,-0.0131271604938
13.95,-0.0759701741265,0.209001333333,-0.690996790123
14,-0.0658173741265,0.157627555556,-1.26266345679
14.05,-0.0589573741265,0.076832,-1.66189851852
14.1,-0.0573109741265,-0.0214946666667,-1.75344987654
14.15,-0.0614269741265,-0.113266222222,-1.50428790123
14.2,-0.0696589741265,-0.181713777778,-1.01028320988
14.25,-0.0809093741265,-0.218300444444,-0.395339259259
14.3,-0.0927085741265,-0.222721333333,0.265846172839
14.35,-0.104507774126,-0.192689777778,0.928471358025
14.4,-0.113562974126,-0.125766666667,1.47041135802
14.45,-0.118227774126,-0.0330804444444,1.7228762963
14.5,-0.116855774126,0.0612826666667,1.63505135802
14.55,-0.111367774126,0.139944,1.29865728395
14.6,-0.102038174126,0.197110666667,0.793558024691
14.65,-0.0905133741265,0.224550666667,0.159643209877
14.7,-0.0781653741265,0.216471111111,-0.541770617284
14.75,-0.0671893741265,0.168298666667,-1.18229135802
14.8,-0.0600549741265,0.0893324444444,-1.60896641975
14.85,-0.0575853741265,-0.00564044444444,-1.72982098765
14.9,-0.0608781741265,-0.0961924444444,-1.54663358025
14.95,-0.0680125741265,-0.168146222222,-1.14494246914
15,-0.0784397741265,-0.218148,-0.553542716049
15.05,-0.0913365741265,-0.230648444444,0.185389382716
15.1,-0.103410174126,-0.19894,0.900946666667
15.15,-0.112739774126,-0.131254666667,1.41409160494
15.2,-0.117130174126,-0.0460382222222,1.65766395062
15.25,-0.117404574126,0.0426844444444,1.66985950617
15.3,-0.113014174126,0.131102222222,1.4210362963
15.35,-0.103410174126,0.197568,0.884855308642
15.4,-0.0916109741265,0.226075111111,0.19208
15.45,-0.0792629741265,0.216318666667,-0.504760493827
15.5,-0.0685613741265,0.171042666667,-1.09675308642
15.55,-0.0611525741265,0.0998511111111,-1.51631407407
15.6,-0.0578597741265,0.010976,-1.71288271605
15.65,-0.0597805741265,-0.0830822222222,-1.61955283951
15.7,-0.0666405741265,-0.164487555556,-1.21235679012
15.75,-0.0776165741265,-0.213879555556,-0.579712345679
15.8,-0.0896901741265,-0.223788444444,0.107981481481
15.85,-0.101214974126,-0.200921777778,0.753414320988
15.9,-0.111093374126,-0.145279555556,1.30467037037
15.95,-0.116855774126,-0.0629595555556,1.65961185185
16,-0.117953374126,0.0323182222222,1.72744962963
16.05,-0.113562974126,0.124547111111,1.4533037037
16.1,-0.104233374126,0.188726222222,0.916360493827
16.15,-0.0932573741265,0.218910222222,0.28295382716
16.2,-0.0811837741265,0.217385777778,-0.372387901235
16.25,-0.0702077741265,0.182018666667,-1.00918222222
16.3,-0.0614269741265,0.111284444444,-1.50437259259
16.35,-0.0581341741265,0.0185982222222,-1.70441358025
16.4,-0.0597805741265,-0.0719537777778,-1.59651679012
16.45,-0.0658173741265,-0.150157777778,-1.24665679012
16.5,-0.0756957741265,-0.204885333333,-0.692605925926
16.55,-0.0877693741265,-0.224398222222,-0.017022962963
16.6,-0.0995685741265,-0.207324444444,0.673380987654
16.65,-0.109995774126,-0.153816444444,1.26943876543
16.7,-0.116306974126,-0.0696671111111,1.61624987654
16.75,-0.117130174126,0.0210373333333,1.6569017284
16.8,-0.113837374126,0.104881777778,1.45846987654
16.85,-0.106154174126,0.174548888889,1.0505962963
16.9,-0.0954525741265,0.219062666667,0.434890123457
16.95,-0.0825557741265,0.223636,-0.298706419753
17,-0.0713053741265,0.185982222222,-0.964211111111
17.05,-0.0627989741265,0.118754222222,-1.43611135802
17.1,-0.0586829741265,0.0323182222222,-1.66054345679
17.15,-0.0595061741265,-0.0568617777778,-1.63191777778
17.2,-0.0644453741265,-0.141468444444,-1.33617555556
17.25,-0.0745981741265,-0.202446222222,-0.767981234568
17.3,-0.0863973741265,-0.223788444444,-0.0660592592593
17.35,-0.0984709741265,-0.207781777778,0.61655308642
17.4,-0.108623774126,-0.156408,1.16797851852
17.45,-0.114934974126,-0.0829297777778,1.52198839506
17.5,-0.117404574126,0.00335377777778,1.66698
17.55,-0.114934974126,0.0948204444444,1.53731753086
17.6,-0.107251774126,0.170128,1.10733950617
17.65,-0.0965501741265,0.213422222222,0.483079506173
17.7,-0.0844765741265,0.220739555556,-0.206477530864
17.75,-0.0729517741265,0.190708,-0.848861481481
17.8,-0.0641709741265,0.129730222222,-1.34447530864
17.85,-0.0592317741265,0.0487822222222,-1.64097975309
17.9,-0.0586829741265,-0.0448186666667,-1.67053703704
17.95,-0.0638965741265,-0.132626666667,-1.37064493827
18,-0.0732261741265,-0.19208,-0.826587654321
18.05,-0.0844765741265,-0.218148,-0.18691382716
18.1,-0.0962757741265,-0.211288,0.471815555556
18.15,-0.106977374126,-0.169975555556,1.08591259259
18.2,-0.114660574126,-0.0963448888889,1.53418395062
18.25,-0.117404574126,-0.004116,1.69043950617
18.3,-0.114934974126,0.0859786666667,1.53062691358
18.35,-0.108074974126,0.158847111111,1.12173703704
18.4,-0.0979221741265,0.204123111111,0.553627407407
18.45,-0.0863973741265,0.217080888889,-0.0907044444444
18.5,-0.0748725741265,0.195891111111,-0.742319753086
18.55,-0.0652685741265,0.138572,-1.28290469136
18.6,-0.0600549741265,0.057624,-1.58948740741
18.65,-0.0592317741265,-0.0312511111111,-1.6284454321
18.7,-0.0633477741265,-0.115705333333,-1.40223481481
18.75,-0.0715797741265,-0.180799111111,-0.942868888889
18.8,-0.0825557741265,-0.217233333333,-0.310139753086
18.85,-0.0949037741265,-0.214946666667,0.393137283951
18.9,-0.105605374126,-0.174701333333,1.02019209877
18.95,-0.113562974126,-0.105186666667,1.46134938272
19,-0.116855774126,-0.0176835555556,1.64208074074
19.05,-0.115209374126,0.0690573333333,1.56391061728
